,Date,Trend
0,2015-08-23,0
1,2015-08-30,0
2,2015-09-06,0
3,2015-09-13,0
4,2015-09-20,0
5,2015-09-27,0
6,2015-10-04,0
7,2015-10-11,32
8,2015-10-18,0
9,2015-10-25,0
10,2015-11-01,32
11,2015-11-08,0
12,2015-11-15,0
13,2015-11-22,0
14,2015-11-29,32
15,2015-12-06,0
16,2015-12-13,33
17,2015-12-20,73
18,2015-12-27,0
19,2016-01-03,0
20,2016-01-10,0
21,2016-01-17,0
22,2016-01-24,0
23,2016-01-31,0
24,2016-02-07,0
25,2016-02-14,33
26,2016-02-21,33
27,2016-02-28,0
28,2016-03-06,33
29,2016-03-13,0
30,2016-03-20,0
31,2016-03-27,0
32,2016-04-03,34
33,2016-04-10,33
34,2016-04-17,67
35,2016-04-24,0
36,2016-05-01,0
37,2016-05-08,34
38,2016-05-15,0
39,2016-05-22,0
40,2016-05-29,35
41,2016-06-05,0
42,2016-06-12,34
43,2016-06-19,0
44,2016-06-26,35
45,2016-07-03,0
46,2016-07-10,36
47,2016-07-17,0
48,2016-07-24,0
49,2016-07-31,0
50,2016-08-07,0
51,2016-08-14,38
52,2016-08-21,36
53,2016-08-28,35
54,2016-09-04,0
55,2016-09-11,0
56,2016-09-18,35
57,2016-09-25,34
58,2016-10-02,0
59,2016-10-09,34
60,2016-10-16,0
61,2016-10-23,0
62,2016-10-30,0
63,2016-11-06,0
64,2016-11-13,68
65,2016-11-20,33
66,2016-11-27,32
67,2016-12-04,32
68,2016-12-11,0
69,2016-12-18,34
70,2016-12-25,36
71,2017-01-01,0
72,2017-01-08,0
73,2017-01-15,0
74,2017-01-22,31
75,2017-01-29,0
76,2017-02-05,31
77,2017-02-12,31
78,2017-02-19,31
79,2017-02-26,30
80,2017-03-05,0
81,2017-03-12,0
82,2017-03-19,31
83,2017-03-26,31
84,2017-04-02,31
85,2017-04-09,0
86,2017-04-16,0
87,2017-04-23,31
88,2017-04-30,32
89,2017-05-07,31
90,2017-05-14,0
91,2017-05-21,0
92,2017-05-28,0
93,2017-06-04,0
94,2017-06-11,0
95,2017-06-18,0
96,2017-06-25,34
97,2017-07-02,34
98,2017-07-09,0
99,2017-07-16,34
100,2017-07-23,0
101,2017-07-30,33
102,2017-08-06,32
103,2017-08-13,0
104,2017-08-20,32
105,2017-08-27,0
106,2017-09-03,32
107,2017-09-10,0
108,2017-09-17,0
109,2017-09-24,0
110,2017-10-01,0
111,2017-10-08,0
112,2017-10-15,0
113,2017-10-22,0
114,2017-10-29,0
115,2017-11-05,0
116,2017-11-12,0
117,2017-11-19,30
118,2017-11-26,0
119,2017-12-03,0
120,2017-12-10,30
121,2017-12-17,32
122,2017-12-24,0
123,2017-12-31,32
124,2018-01-07,0
125,2018-01-14,30
126,2018-01-21,0
127,2018-01-28,0
128,2018-02-04,30
129,2018-02-11,30
130,2018-02-18,29
131,2018-02-25,29
132,2018-03-04,29
133,2018-03-11,0
134,2018-03-18,0
135,2018-03-25,0
136,2018-04-01,30
137,2018-04-08,29
138,2018-04-15,0
139,2018-04-22,0
140,2018-04-29,0
141,2018-05-06,59
142,2018-05-13,0
143,2018-05-20,0
144,2018-05-27,0
145,2018-06-03,30
146,2018-06-10,0
147,2018-06-17,29
148,2018-06-24,0
149,2018-07-01,30
150,2018-07-08,0
151,2018-07-15,30
152,2018-07-22,30
153,2018-07-29,0
154,2018-08-05,0
155,2018-08-12,0
156,2018-08-19,0
157,2018-08-26,0
158,2018-09-02,29
159,2018-09-09,28
160,2018-09-16,57
161,2018-09-23,29
162,2018-09-30,0
163,2018-10-07,29
164,2018-10-14,29
165,2018-10-21,58
166,2018-10-28,29
167,2018-11-04,57
168,2018-11-11,43
169,2018-11-18,29
170,2018-11-25,29
171,2018-12-02,29
172,2018-12-09,29
173,2018-12-16,0
174,2018-12-23,0
175,2018-12-30,0
176,2019-01-06,0
177,2019-01-13,29
178,2019-01-20,0
179,2019-01-27,28
180,2019-02-03,0
181,2019-02-10,28
182,2019-02-17,28
183,2019-02-24,28
184,2019-03-03,0
185,2019-03-10,28
186,2019-03-17,0
187,2019-03-24,29
188,2019-03-31,0
189,2019-04-07,57
190,2019-04-14,30
191,2019-04-21,29
192,2019-04-28,58
193,2019-05-05,29
194,2019-05-12,29
195,2019-05-19,0
196,2019-05-26,28
197,2019-06-02,56
198,2019-06-09,28
199,2019-06-16,29
200,2019-06-23,0
201,2019-06-30,43
202,2019-07-07,28
203,2019-07-14,0
204,2019-07-21,0
205,2019-07-28,59
206,2019-08-04,44
207,2019-08-11,29
208,2019-08-18,0
209,2019-08-25,37
210,2019-09-01,28
211,2019-09-08,36
212,2019-09-15,36
213,2019-09-22,36
214,2019-09-29,45
215,2019-10-06,54
216,2019-10-13,80
217,2019-10-20,53
218,2019-10-27,40
219,2019-11-03,26
220,2019-11-10,44
221,2019-11-17,26
222,2019-11-24,26
223,2019-12-01,53
224,2019-12-08,0
225,2019-12-15,27
226,2019-12-22,59
227,2019-12-29,66
228,2020-01-05,26
229,2020-01-12,50
230,2020-01-19,69
231,2020-01-26,89
232,2020-02-02,25
233,2020-02-09,25
234,2020-02-16,25
235,2020-02-23,65
236,2020-03-01,98
237,2020-03-08,60
238,2020-03-15,48
239,2020-03-22,46
240,2020-03-29,68
241,2020-04-05,55
242,2020-04-12,100
243,2020-04-19,23
244,2020-04-26,69
245,2020-05-03,54
246,2020-05-10,23
247,2020-05-17,47
248,2020-05-24,24
249,2020-05-31,0
250,2020-06-07,23
251,2020-06-14,36
252,2020-06-21,98
253,2020-06-28,73
254,2020-07-05,41
255,2020-07-12,58
256,2020-07-19,63
257,2020-07-26,68
258,2020-08-02,42
259,2020-08-09,38
