Date,Volume,Price,Trades,High,Low,Open,Close,Open-shifted
2016-02-20,12337,130842333,4,10677.0,10330.0,10236.0,10330.0,10169.0
2016-02-21,11127,114703000,11,10600.0,10000.0,10246.0,10588.0,10236.0
2016-02-22,12014,124042908,10,10584.0,10200.0,10258.0,10340.0,10246.0
2016-02-23,6100,64827556,10,10661.0,10590.0,10286.0,10661.0,10258.0
2016-02-24,22685,232429925,6,10500.0,10205.0,10275.0,10500.0,10286.0
2016-02-27,800,8387500,3,10490.0,10400.0,10277.0,10400.0,10275.0
2016-02-28,100,1050000,1,10500.0,10500.0,10277.0,10500.0,10277.0
2016-03-01,280,2765800,4,10000.0,9810.0,10276.0,9810.0,10277.0
2016-03-05,5000,49000000,1,9800.0,9800.0,10246.0,9800.0,10276.0
2016-03-08,500,4900000,1,9800.0,9800.0,10243.0,9800.0,10246.0
2016-03-15,137131,1366383742,15,10450.0,9731.0,9964.0,9731.0,10243.0
2016-04-02,100,1041900,1,10419.0,10419.0,9965.0,10419.0,9964.0
2016-04-03,6300,63945000,3,10150.0,10150.0,9980.0,10150.0,9965.0
2016-04-06,6543,62161800,3,9501.0,9500.0,9941.0,9501.0,9980.0
2016-04-09,100872,1044778970,19,10438.0,10100.0,10357.0,10200.0,9941.0
2016-04-10,43655,460906570,20,10660.0,10400.0,10467.0,10410.0,10357.0
2016-04-11,38192,411773190,17,10980.0,10467.0,10617.0,10730.0,10467.0
2016-04-12,20800,225008311,14,10990.0,10700.0,10669.0,10752.0,10617.0
2016-04-13,1500,16317000,3,11000.0,10800.0,10673.0,11000.0,10669.0
2016-04-16,32575,359375141,27,11206.0,11000.0,10819.0,11000.0,10673.0
2016-04-17,2336,24682957,3,10595.0,10292.0,10812.0,10595.0,10819.0
2016-04-18,1300,13720000,5,11200.0,10400.0,10808.0,10400.0,10812.0
2016-04-19,5749,63069100,3,11000.0,10900.0,10820.0,11000.0,10808.0
2016-04-20,250154,2829434681,13,11361.0,11200.0,11311.0,11361.0,10820.0
2016-04-23,53431,634546556,13,11876.0,11876.0,11688.0,11876.0,11311.0
2016-04-24,3098,37925190,15,12272.0,11705.0,11709.0,12262.0,11688.0
2016-04-25,9685,118336464,11,12294.0,11700.0,11771.0,11901.0,11709.0
2016-04-26,2401,27611900,4,11900.0,11500.0,11763.0,11900.0,11771.0
2016-04-27,2600,29293800,5,12200.0,11191.0,11747.0,12200.0,11763.0
2016-04-30,2154,24956494,5,12000.0,11211.0,11743.0,12000.0,11747.0
2016-05-02,21566,264816170,8,12330.0,12245.0,11888.0,12330.0,11743.0
2016-05-03,129342,1606489226,21,12482.0,12150.0,12420.0,12482.0,11888.0
2016-05-04,3585,46644000,5,13040.0,12999.0,12446.0,13000.0,12420.0
2016-05-07,350,4549650,1,12999.0,12999.0,12448.0,12999.0,12446.0
2016-05-08,5921,76972535,10,13000.0,12999.0,12489.0,13000.0,12448.0
2016-05-09,4085,53105000,9,13000.0,13000.0,12515.0,13000.0,12489.0
2016-05-10,12901,162534140,27,13000.0,12100.0,12528.0,12100.0,12515.0
2016-05-11,12156,158033535,12,13067.0,12200.0,12600.0,13000.0,12528.0
2016-05-14,10272,133271387,16,13000.0,12601.0,12648.0,13000.0,12600.0
2016-05-15,52839,675181984,6,13000.0,12772.0,12734.0,12773.0,12648.0
2016-05-16,4219,55216000,10,13369.0,13000.0,12753.0,13369.0,12734.0
2016-05-17,3554,45720991,13,13377.0,12755.0,12758.0,13377.0,12753.0
2016-05-18,9569,122856908,33,13344.0,12784.0,12768.0,13344.0,12758.0
2016-05-21,11555,150925567,20,13350.0,12770.0,12810.0,13300.0,12768.0
2016-05-23,14336,187643763,21,13450.0,12999.0,12860.0,12999.0,12810.0
2016-05-24,63237,827235762,49,13200.0,12999.0,13035.0,13200.0,12860.0
2016-05-25,13783,183306450,15,13350.0,13200.0,13081.0,13350.0,13035.0
2016-05-28,27285,366153858,35,13548.0,13398.0,13196.0,13490.0,13081.0
2016-06-05,8335,100843635,12,12103.0,12096.0,12096.0,12100.0,12096.0
2016-06-06,5277,64981120,17,12400.0,12200.0,12110.0,12350.0,12096.0
2016-06-07,11610,142919293,16,12450.0,12150.0,12139.0,12351.0,12110.0
2016-06-08,21836,266215182,24,12351.0,12130.0,12153.0,12130.0,12139.0
2016-06-11,20160,243861150,27,12151.0,12080.0,12139.0,12080.0,12153.0
2016-06-12,13300,164510000,5,12400.0,12350.0,12177.0,12350.0,12139.0
2016-06-13,4706,59022500,3,12550.0,12361.0,12198.0,12550.0,12177.0
2016-06-14,15749,199710300,10,12770.0,12600.0,12293.0,12770.0,12198.0
2016-06-18,26355,340093985,14,12907.0,12900.0,12494.0,12907.0,12293.0
2016-06-19,1769,23203973,6,13117.0,13117.0,12508.0,13117.0,12494.0
2016-06-20,29829,391532737,27,13129.0,13117.0,12738.0,13127.0,12508.0
2016-06-21,29449,393837646,38,13374.0,13370.0,12972.0,13370.0,12738.0
2016-06-22,8914,121101800,20,13620.0,13500.0,13040.0,13500.0,12972.0
2016-06-25,5172,67770120,10,13499.0,12801.0,13044.0,13499.0,13040.0
2016-06-26,274,3702320,2,13680.0,13450.0,13046.0,13680.0,13044.0
2016-06-28,1298,17755876,4,13680.0,13677.0,13056.0,13677.0,13046.0
2016-06-29,2593,33438460,10,13300.0,12800.0,13051.0,13300.0,13056.0
2016-07-02,10400,135245300,4,13300.0,13000.0,13045.0,13300.0,13051.0
2016-07-03,34694,450098200,28,13005.0,12700.0,13014.0,13005.0,13045.0
2016-07-04,26626,346197250,9,13450.0,13000.0,13010.0,13450.0,13014.0
2016-07-05,14002,182003955,11,13000.0,12990.0,13008.0,13000.0,13010.0
2016-07-09,6300,80658601,14,13290.0,12600.0,12992.0,12600.0,13008.0
2016-07-10,10400,135190000,2,13000.0,12999.0,12993.0,12999.0,12992.0
2016-07-11,19100,254098480,16,13500.0,12666.0,13067.0,13500.0,12993.0
2016-07-13,3700,48102000,3,13001.0,13000.0,13064.0,13000.0,13067.0
2016-07-16,30752,402684896,6,13100.0,13000.0,13076.0,13000.0,13064.0
2016-07-17,80,1043200,1,13040.0,13040.0,13076.0,13040.0,13076.0
2016-07-18,19078,253733543,11,13490.0,13200.0,13129.0,13400.0,13076.0
2016-07-19,1930,26034377,9,13600.0,13400.0,13138.0,13400.0,13129.0
2016-07-20,13476,184303628,16,13794.0,13500.0,13229.0,13794.0,13138.0
2016-07-23,800,11112000,3,13890.0,13890.0,13236.0,13890.0,13229.0
2016-07-25,10,138970,1,13897.0,13897.0,13236.0,13897.0,13236.0
2016-08-01,500,6948500,1,13897.0,13897.0,13240.0,13897.0,13236.0
2016-08-02,520,7229040,3,13902.0,13902.0,13244.0,13902.0,13240.0
2016-08-03,105,1460130,1,13906.0,13906.0,13245.0,13906.0,13244.0
2016-08-06,5,69535,1,13907.0,13907.0,13245.0,13907.0,13245.0
2016-08-09,100,1390700,1,13907.0,13907.0,13246.0,13907.0,13245.0
2016-08-10,10000,139080000,2,13908.0,13908.0,13329.0,13908.0,13246.0
2016-08-13,100,1399500,1,13995.0,13995.0,13330.0,13995.0,13329.0
2016-08-15,1008,14107968,3,13996.0,13996.0,13338.0,13996.0,13330.0
2016-08-16,10,140040,1,14004.0,14004.0,13338.0,14004.0,13338.0
2016-08-20,539,7548156,2,14004.0,14004.0,13342.0,14004.0,13338.0
2016-08-22,2575,36073175,1,14009.0,14009.0,13363.0,14009.0,13342.0
2016-08-23,80000,1122480000,11,14031.0,14031.0,14031.0,14031.0,13363.0
2016-08-24,100,1473200,1,14732.0,14732.0,14032.0,14732.0,14031.0
2016-08-28,183,2696139,1,14733.0,14733.0,14034.0,14733.0,14032.0
2016-08-29,125,1841875,2,14735.0,14735.0,14035.0,14735.0,14034.0
2016-08-30,150,2210400,1,14736.0,14736.0,14036.0,14736.0,14035.0
2016-08-31,100,1473700,1,14737.0,14737.0,14037.0,14737.0,14036.0
2016-09-06,105,1547490,2,14738.0,14738.0,14038.0,14738.0,14037.0
2016-09-10,100,1473900,1,14739.0,14739.0,14039.0,14739.0,14038.0
2016-09-13,50,737000,1,14740.0,14740.0,14039.0,14740.0,14039.0
2016-09-14,100,1474000,1,14740.0,14740.0,14040.0,14740.0,14039.0
2016-09-19,10000,147420000,1,14742.0,14742.0,14128.0,14742.0,14040.0
2016-09-21,240,3560160,1,14834.0,14834.0,14130.0,14834.0,14128.0
2016-09-26,15000,222540000,1,14836.0,14836.0,14262.0,14836.0,14130.0
2016-09-28,2000,29950000,1,14975.0,14975.0,14280.0,14975.0,14262.0
2016-10-01,530,7946820,1,14994.0,14994.0,14285.0,14994.0,14280.0
2016-10-02,25000,374975000,2,14999.0,14999.0,14508.0,14999.0,14285.0
2016-10-03,10214,155589862,3,15233.0,15233.0,14601.0,15233.0,14508.0
2016-10-04,10669,163566439,5,15331.0,15331.0,14698.0,15331.0,14601.0
2016-10-05,312,4814784,2,15432.0,15432.0,14701.0,15432.0,14698.0
2016-10-08,11056,170660416,5,15436.0,15436.0,14803.0,15436.0,14701.0
2016-10-09,200,3108600,2,15543.0,15543.0,14805.0,15543.0,14803.0
2016-10-10,11909,185125405,6,15545.0,15545.0,14915.0,15545.0,14805.0
2016-10-15,1000,15660000,2,15660.0,15660.0,14924.0,15660.0,14915.0
2016-10-16,85500,1339785000,9,15670.0,15670.0,15670.0,15670.0,14924.0
2016-11-19,1604731,17594048926,285,11025.0,10300.0,10964.0,11025.0,7835.0
2016-11-21,269751,2982703610,174,11512.0,10421.0,11057.0,11050.0,10964.0
2016-11-22,58429,615953591,42,11300.0,10513.0,10875.0,10513.0,11057.0
2016-11-23,61547,635903604,21,10332.0,10332.0,10666.0,10332.0,10875.0
2016-11-26,569502,5863250235,152,10890.0,10133.0,10295.0,10758.0,10666.0
2016-11-27,61520,664969680,20,10809.0,10809.0,10493.0,10809.0,10295.0
2016-11-29,269541,2969533197,31,11017.0,11017.0,11017.0,11017.0,10493.0
2016-12-03,270098,3124170166,54,11567.0,11300.0,11567.0,11567.0,11017.0
2016-12-04,160000,1943200000,22,12145.0,12145.0,12145.0,12145.0,11567.0
2016-12-05,307403,3920003056,85,12752.0,12752.0,12752.0,12752.0,12145.0
2016-12-06,273381,3447935064,152,12950.0,12200.0,12612.0,12400.0,12752.0
2016-12-07,85898,1034312094,62,12430.0,11982.0,12306.0,12100.0,12612.0
2016-12-10,75979,889115422,36,12180.0,11691.0,12019.0,11691.0,12306.0
2016-12-11,109487,1250331007,63,11500.0,11419.0,11609.0,11421.0,12019.0
2016-12-12,120882,1468153336,66,12189.0,11421.0,12014.0,12189.0,11609.0
2016-12-13,186260,2307428614,58,12614.0,12000.0,12388.0,12499.0,12014.0
2016-12-14,46540,583114971,25,12700.0,12202.0,12429.0,12401.0,12388.0
2016-12-18,268400,3498770748,94,13050.0,12900.0,13036.0,13050.0,12429.0
2016-12-19,49926,658858153,39,13377.0,13150.0,13086.0,13262.0,13036.0
2016-12-20,148576,1986580226,100,13589.0,12433.0,13350.0,13540.0,13086.0
2016-12-21,80266,1086248370,33,13850.0,13449.0,13442.0,13500.0,13350.0
2016-12-24,105431,1352336008,53,13044.0,12770.0,13037.0,13000.0,13442.0
2016-12-25,33015,421667567,25,12850.0,12712.0,12982.0,12850.0,13037.0
2016-12-26,55613,722662000,22,13000.0,12936.0,12986.0,12980.0,12982.0
2016-12-27,72506,943498906,31,13170.0,12986.0,12998.0,13150.0,12986.0
2016-12-28,27796,375088961,13,13640.0,13225.0,13084.0,13500.0,12998.0
2016-12-31,230108,3159493022,82,13738.0,13610.0,13730.0,13728.0,13084.0
2017-01-01,48361,644912648,43,13501.0,13295.0,13611.0,13300.0,13730.0
2017-01-02,16670,220073280,6,13450.0,13150.0,13568.0,13150.0,13611.0
2017-01-03,29938,389890400,31,13200.0,12890.0,13466.0,13000.0,13568.0
2017-01-04,30790,394101842,38,12823.0,12793.0,13338.0,12793.0,13466.0
2017-01-07,7131,90364032,16,12672.0,12672.0,13308.0,12672.0,13338.0
2017-01-08,4707,59510601,11,12643.0,12643.0,13288.0,12643.0,13308.0
2017-01-09,1025,12939600,4,12624.0,12624.0,13284.0,12624.0,13288.0
2017-01-14,18045,227727900,10,12620.0,12620.0,13209.0,12620.0,13284.0
2017-01-15,793,9951357,2,12549.0,12549.0,13206.0,12549.0,13209.0
2017-01-16,555,6963030,1,12546.0,12546.0,13204.0,12546.0,13206.0
2017-01-17,1190,14927360,2,12544.0,12544.0,13199.0,12544.0,13204.0
2017-01-21,57772,724460880,10,12540.0,12540.0,12961.0,12540.0,13199.0
2017-01-22,2345,28873985,8,12313.0,12313.0,12952.0,12313.0,12961.0
2017-01-23,112244,1381162420,31,12305.0,12305.0,12498.0,12305.0,12952.0
2017-01-24,7253,86122122,11,11874.0,11874.0,12470.0,11874.0,12498.0
2017-01-25,30996,368074194,25,12500.0,11847.0,12355.0,11847.0,12470.0
2017-01-28,20674,249235669,26,12490.0,11738.0,12316.0,12490.0,12355.0
2017-01-29,30780,383363609,18,12550.0,12300.0,12343.0,12300.0,12316.0
2017-01-30,1963,24659042,5,12899.0,12200.0,12346.0,12200.0,12343.0
2017-01-31,4400,52132070,16,12200.0,11729.0,12332.0,11729.0,12346.0
2017-02-04,23382,274153692,18,11731.0,11716.0,12243.0,11716.0,12332.0
2017-02-05,165500,1925035000,10,11650.0,11631.0,11632.0,11631.0,12243.0
2017-02-06,3000,34056000,4,11502.0,11052.0,11627.0,11052.0,11632.0
2017-02-07,22911,253335014,21,11100.0,11046.0,11545.0,11046.0,11627.0
2017-02-08,44828,491688364,14,11020.0,10968.0,11383.0,10968.0,11545.0
2017-02-11,70175,761642430,48,11600.0,10814.0,11151.0,10814.0,11383.0
2017-02-12,46910,496964540,10,10594.0,10594.0,10988.0,10594.0,11151.0
2017-02-13,2249,25867977,4,11537.0,11500.0,10995.0,11500.0,10988.0
2017-02-15,174,2006220,1,11530.0,11530.0,10996.0,11530.0,10995.0
2017-02-18,200,2198000,1,10990.0,10990.0,10996.0,10990.0,10996.0
2017-02-19,14380,163106940,10,11500.0,11150.0,11027.0,11350.0,10996.0
2017-02-20,3358,38085914,6,11444.0,10476.0,11034.0,11444.0,11027.0
2017-02-21,7368,80501800,4,11033.0,10800.0,11029.0,10800.0,11034.0
2017-02-22,16803,176098654,12,10600.0,10478.0,10971.0,10478.0,11029.0
2017-02-25,12424,136415520,3,10980.0,10980.0,10972.0,10980.0,10971.0
2017-02-26,2420,25765120,3,10952.0,10430.0,10967.0,10952.0,10972.0
2017-02-27,11500,119945000,2,10430.0,10430.0,10928.0,10430.0,10967.0
2017-02-28,30900,338415890,4,10952.0,10950.0,10933.0,10951.0,10928.0
2017-03-01,80712,838456800,14,10406.0,10387.0,10658.0,10387.0,10933.0
2017-03-04,500,5397500,2,10800.0,10550.0,10658.0,10800.0,10658.0
2017-03-05,91650,928050900,14,10127.0,10126.0,10353.0,10126.0,10658.0
2017-03-06,2004,20270960,4,10120.0,10104.0,10350.0,10104.0,10353.0
2017-03-07,95450,943748000,6,10120.0,9840.0,10074.0,9840.0,10350.0
2017-03-08,2101,20694120,2,10120.0,9836.0,10071.0,10120.0,10074.0
2017-03-12,1500,14885500,5,10120.0,9800.0,10070.0,9800.0,10071.0
2017-03-13,16530,158274220,5,9600.0,9574.0,10019.0,9574.0,10070.0
2017-03-14,50000,479250000,2,9585.0,9585.0,9883.0,9585.0,10019.0
2017-03-18,2852,29465357,7,10376.0,9612.0,9891.0,9612.0,9883.0
2017-03-26,1000,9624000,1,9624.0,9624.0,9889.0,9624.0,9891.0
2017-03-27,2530,24335360,5,9620.0,9612.0,9885.0,9620.0,9889.0
2017-03-28,1450,13972722,2,9650.0,9621.0,9883.0,9621.0,9885.0
2017-04-04,24544,236075811,12,9640.0,9612.0,9842.0,9613.0,9883.0
2017-04-08,12968,123223267,13,9764.0,9401.0,9814.0,9764.0,9842.0
2017-04-09,11071,110388025,10,10000.0,9455.0,9825.0,9456.0,9814.0
2017-04-10,11100,104966450,12,9500.0,9450.0,9799.0,9450.0,9825.0
2017-04-12,4305,40624380,10,9450.0,9410.0,9789.0,9416.0,9799.0
2017-04-15,5281,49741901,7,9431.0,9400.0,9777.0,9431.0,9789.0
2017-04-16,44828,442632547,24,10265.0,9401.0,9804.0,10265.0,9777.0
2017-04-17,11667,120079198,7,10294.0,10104.0,9840.0,10294.0,9804.0
2017-04-18,34475,356057343,22,10332.0,9999.0,9945.0,10300.0,9840.0
2017-04-19,13722,143278689,10,10442.0,10377.0,9988.0,10442.0,9945.0
2017-04-22,3546,37170092,6,10487.0,10446.0,9999.0,10487.0,9988.0
2017-04-23,126079,1323577342,19,10498.0,10498.0,10392.0,10498.0,9999.0
2017-04-24,922,10059942,4,10911.0,10911.0,10395.0,10911.0,10392.0
2017-04-26,45728,499075392,12,10914.0,10914.0,10543.0,10914.0,10395.0
2017-04-29,30150,333760500,4,11070.0,11070.0,10642.0,11070.0,10543.0
2017-04-30,30500,340807000,7,11174.0,11174.0,10743.0,11174.0,10642.0
2017-05-01,32105,362144400,5,11280.0,11280.0,10851.0,11280.0,10743.0
2017-05-02,40266,458750538,7,11393.0,11393.0,10987.0,11393.0,10851.0
2017-05-03,11000,126896000,6,11536.0,11536.0,11025.0,11536.0,10987.0
2017-05-06,168047,1915158307,37,11576.0,10551.0,11397.0,11398.0,11025.0
2017-05-07,47196,511714708,16,11250.0,10828.0,11233.0,10830.0,11397.0
2017-05-08,171717,1956848568,58,11794.0,10672.0,11396.0,11794.0,11233.0
2017-05-09,13055,156107971,16,11965.0,11900.0,11442.0,11950.0,11396.0
2017-05-10,33302,400083836,26,12014.0,12000.0,11561.0,12014.0,11442.0
2017-05-13,10425,125150100,3,12138.0,12000.0,11590.0,12100.0,11561.0
2017-05-14,2113,25650789,5,12169.0,12098.0,11597.0,12098.0,11590.0
2017-05-15,28033,339900400,17,12176.0,12000.0,11690.0,12176.0,11597.0
2017-05-16,17653,215521380,46,12274.0,12100.0,11747.0,12274.0,11690.0
2017-05-17,16636,204432453,15,12334.0,12122.0,11803.0,12334.0,11747.0
2017-05-20,1797,22270051,4,12393.0,12392.0,11810.0,12393.0,11803.0
2017-05-21,6214,74229089,15,12400.0,11666.0,11815.0,12000.0,11810.0
2017-05-22,412,4947738,5,12388.0,11998.0,11815.0,12350.0,11815.0
2017-05-23,642,7884970,5,12300.0,12270.0,11817.0,12270.0,11815.0
2017-05-24,51962,638518124,20,12407.0,12177.0,11970.0,12407.0,11817.0
2017-05-27,390,4901420,3,12568.0,12567.0,11971.0,12568.0,11970.0
2017-05-28,196,2279788,4,11971.0,11377.0,11971.0,11971.0,11971.0
2017-05-29,26188,298128537,13,12340.0,11373.0,11875.0,12000.0,11971.0
2017-05-30,1000,12336309,2,12339.0,12300.0,11878.0,12339.0,11875.0
2017-05-31,564,6391940,2,11335.0,11333.0,11876.0,11335.0,11878.0
2017-06-03,3831,43652319,10,11600.0,11283.0,11864.0,11355.0,11876.0
2017-06-06,250,2838750,1,11355.0,11355.0,11863.0,11355.0,11864.0
2017-06-07,57953,653492182,6,11277.0,11270.0,11650.0,11270.0,11863.0
2017-06-10,33075,366074100,4,11068.0,11068.0,11530.0,11068.0,11650.0
2017-06-11,91965,1007384610,12,10954.0,10954.0,11199.0,10954.0,11530.0
2017-06-19,1000,10500000,2,10500.0,10500.0,10489.0,10500.0,10489.0
2017-06-20,100,1010700,1,10107.0,10107.0,10489.0,10107.0,10489.0
2017-06-21,104,1051128,4,10107.0,10107.0,10489.0,10107.0,10489.0
2017-06-24,2956,29583054,11,10022.0,10003.0,10480.0,10003.0,10489.0
2017-06-25,1501,15310200,2,10200.0,10200.0,10477.0,10200.0,10480.0
2017-07-01,2489,24903330,5,10011.0,10004.0,10470.0,10004.0,10477.0
2017-07-02,700,7001500,2,10003.0,10000.0,10468.0,10000.0,10470.0
2017-07-03,80254,798181450,12,10300.0,9945.0,10206.0,9945.0,10468.0
2017-07-04,8262,86820812,9,10716.0,10206.0,10222.0,10716.0,10206.0
2017-07-05,2115,22695308,5,10733.0,10716.0,10229.0,10732.0,10222.0
2017-07-08,500,5370000,2,10740.0,10740.0,10231.0,10740.0,10229.0
2017-07-09,50003,486731269,6,10000.0,9720.0,10076.0,9723.0,10231.0
2017-07-10,50000,479062611,9,9700.0,9573.0,9921.0,9573.0,10076.0
2017-07-11,13431,127160960,13,9555.0,9425.0,9883.0,9425.0,9921.0
2017-07-15,5881,55676149,5,10280.0,9389.0,9868.0,10280.0,9883.0
2017-07-17,200,2072200,1,10361.0,10361.0,9869.0,10361.0,9868.0
2017-07-18,1000,10112000,2,10112.0,10112.0,9871.0,10112.0,9869.0
2017-07-25,2000,19810000,2,10255.0,9555.0,9871.0,9555.0,9871.0
2017-07-26,110,1112430,1,10113.0,10113.0,9871.0,10113.0,9871.0
2017-07-30,3316,31339516,7,9451.0,9451.0,9862.0,9451.0,9871.0
2017-07-31,1000,9860000,1,9860.0,9860.0,9862.0,9860.0,9862.0
2017-08-02,41100,385469370,21,9501.0,9369.0,9738.0,9369.0,9862.0
2017-08-06,24300,244464390,19,10224.0,9252.0,9787.0,10199.0,9738.0
2017-08-07,17457,172190400,11,10274.0,9500.0,9795.0,9800.0,9787.0
2017-08-08,3000,29400000,3,9800.0,9800.0,9795.0,9800.0,9795.0
2017-08-09,3040,29893000,3,9940.0,9595.0,9796.0,9595.0,9795.0
2017-08-12,141979,1322107112,22,9456.0,9307.0,9367.0,9307.0,9796.0
2017-08-13,26417,237937639,15,9833.0,8899.0,9308.0,9757.0,9367.0
2017-08-15,1553,15177385,6,9773.0,9770.0,9313.0,9773.0,9308.0
2017-08-20,238,2128434,1,8943.0,8943.0,9312.0,8943.0,9313.0
2017-08-21,103665,917614117,7,8944.0,8847.0,9014.0,8847.0,9312.0
2017-08-22,17988,154583222,14,8900.0,8564.0,8967.0,8564.0,9014.0
2017-08-23,41312,351951428,8,8521.0,8519.0,8851.0,8520.0,8967.0
2017-08-26,12841,110691500,8,8827.0,8550.0,8832.0,8550.0,8851.0
2017-08-27,36144,304646212,24,8490.0,8391.0,8741.0,8400.0,8832.0
2017-08-28,35086,293598201,22,8487.0,8304.0,8659.0,8311.0,8741.0
2017-08-29,5040,45078449,21,9091.0,8515.0,8668.0,8800.0,8659.0
2017-08-30,380,3401000,2,8950.0,8950.0,8669.0,8950.0,8668.0
2017-09-02,426,3877167,4,9102.0,9101.0,8670.0,9101.0,8669.0
2017-09-03,110,968330,1,8803.0,8803.0,8670.0,8803.0,8670.0
2017-09-04,8811,75460203,12,9101.0,8500.0,8664.0,8500.0,8670.0
2017-09-05,1000,9089000,2,9089.0,9089.0,8667.0,9089.0,8664.0
2017-09-11,9500,80723200,5,8501.0,8496.0,8657.0,8496.0,8667.0
2017-09-12,5259,43432446,8,8494.0,8250.0,8644.0,8252.0,8657.0
2017-09-13,1430,11951410,3,8400.0,8253.0,8641.0,8400.0,8644.0
2017-09-16,5768,48500754,4,8495.0,8400.0,8633.0,8495.0,8641.0
2017-09-17,6300,53062500,3,8495.0,8400.0,8625.0,8495.0,8633.0
2017-09-18,2175,18194351,4,8495.0,8281.0,8621.0,8281.0,8625.0
2017-09-19,2395,20345525,1,8495.0,8495.0,8619.0,8495.0,8621.0
2017-09-20,4789,41091900,4,8625.0,8280.0,8618.0,8625.0,8619.0
2017-09-24,3550,30600050,2,8625.0,8251.0,8618.0,8625.0,8618.0
2017-09-25,5298,45150560,6,8625.0,8263.0,8615.0,8263.0,8618.0
2017-09-26,11000,91596800,8,8615.0,8266.0,8595.0,8266.0,8615.0
2017-09-27,499,4288905,1,8595.0,8595.0,8595.0,8595.0,8595.0
2017-10-02,1920,16560000,1,8625.0,8625.0,8595.0,8625.0,8595.0
2017-10-03,3801,32048462,8,8625.0,8282.0,8591.0,8282.0,8595.0
2017-10-08,35607,293520258,10,8292.0,8242.0,8514.0,8244.0,8591.0
2017-10-09,1,8244,1,8244.0,8244.0,8514.0,8244.0,8514.0
2017-10-11,1330,11407970,2,8600.0,8509.0,8515.0,8600.0,8514.0
2017-10-14,73666,646937157,8,8850.0,8600.0,8638.0,8850.0,8515.0
2017-10-15,175161,1562833910,40,9000.0,8800.0,8922.0,8980.0,8638.0
2017-10-16,2750,25414950,3,9247.0,9239.0,8927.0,9239.0,8922.0
2017-10-17,78218,703957020,11,9021.0,8990.0,8963.0,9000.0,8927.0
2017-10-18,848,7389847,4,8999.0,8572.0,8962.0,8572.0,8963.0
2017-10-21,3078,26670340,7,9100.0,8514.0,8956.0,9000.0,8962.0
2017-10-22,19341,165755326,11,9244.0,8509.0,8909.0,8509.0,8956.0
2017-10-23,28500,241459290,13,8915.0,8464.0,8831.0,8915.0,8909.0
2017-10-24,573,5108295,2,8915.0,8915.0,8831.0,8915.0,8831.0
2017-10-28,7000,59969560,7,8910.0,8392.0,8819.0,8392.0,8831.0
2017-10-29,277,2321309,3,8384.0,8380.0,8818.0,8384.0,8819.0
2017-10-30,1734,14530186,3,8380.0,8379.0,8813.0,8379.0,8818.0
2017-10-31,2000,17524000,2,9149.0,8375.0,8812.0,8375.0,8813.0
2017-11-01,500,4450000,1,8900.0,8900.0,8812.0,8900.0,8812.0
2017-11-04,624,5224128,1,8372.0,8372.0,8810.0,8372.0,8812.0
2017-11-05,103869,870053854,11,8700.0,8370.0,8529.0,8371.0,8810.0
2017-11-06,105792,940627463,14,8955.0,8242.0,8769.0,8900.0,8529.0
2017-11-07,935,7949182,4,8890.0,8418.0,8767.0,8890.0,8769.0
2017-11-08,150276,1337397156,8,9146.0,8331.0,8892.0,8900.0,8767.0
2017-11-11,100000,895000000,4,8950.0,8950.0,8928.0,8950.0,8892.0
2017-11-12,102720,919344000,6,8950.0,8950.0,8942.0,8950.0,8928.0
2017-11-13,553183,4892327053,55,9111.0,8495.0,8844.0,9111.0,8942.0
2017-11-14,803000,7185069400,75,8950.0,8940.0,8948.0,8940.0,8844.0
2017-11-15,100,914700,1,9147.0,9147.0,8948.0,9147.0,8948.0
2017-11-18,25000,212566375,3,8512.0,8501.0,8878.0,8501.0,8948.0
2017-11-20,24280,204802384,10,8436.0,8435.0,8811.0,8435.0,8878.0
2017-11-21,150,1265250,1,8435.0,8435.0,8811.0,8435.0,8811.0
2017-11-22,241312,2147466800,24,8900.0,8800.0,8899.0,8900.0,8811.0
2017-11-25,11435,101771165,4,8900.0,8899.0,8899.0,8899.0,8899.0
2017-11-26,8518,72157990,8,8755.0,8455.0,8876.0,8457.0,8899.0
2017-11-29,1800,15613200,2,8679.0,8670.0,8874.0,8679.0,8876.0
2017-12-02,4200,35423700,3,8450.0,8431.0,8862.0,8431.0,8874.0
2017-12-03,45500,383064500,3,8419.0,8419.0,8736.0,8419.0,8862.0
2017-12-04,2196,18226800,3,8300.0,8300.0,8730.0,8300.0,8736.0
2017-12-09,7039,58912466,4,8400.0,8294.0,8714.0,8294.0,8730.0
2017-12-10,1000,8279000,1,8279.0,8279.0,8711.0,8279.0,8714.0
2017-12-11,9621,79623396,8,8276.0,8276.0,8685.0,8276.0,8711.0
2017-12-12,10808,89176808,12,8251.0,8251.0,8656.0,8251.0,8685.0
2017-12-13,33338,274179998,8,8229.0,8224.0,8566.0,8224.0,8656.0
2017-12-16,7400,60236000,12,8140.0,8140.0,8546.0,8140.0,8566.0
2017-12-17,95000,771460800,10,8150.0,8119.0,8293.0,8119.0,8546.0
2017-12-18,21150,166667846,18,7899.0,7879.0,8238.0,7879.0,8293.0
2017-12-24,70000,547899908,6,7831.0,7827.0,8058.0,7827.0,8238.0
2017-12-25,2100,16090200,1,7662.0,7662.0,8053.0,7662.0,8058.0
2017-12-26,1800,14489923,4,8050.0,8049.0,8053.0,8050.0,8053.0
2017-12-27,1000,8050000,3,8050.0,8050.0,8053.0,8050.0,8053.0
2017-12-30,3690,31155165,7,8445.0,8394.0,8062.0,8394.0,8053.0
2017-12-31,8897,68273020,4,7700.0,7660.0,8040.0,7666.0,8062.0
2018-01-01,1400,10958000,2,7855.0,7660.0,8038.0,7855.0,8040.0
2018-01-02,2500,19165000,3,7666.0,7666.0,8032.0,7666.0,8038.0
2018-01-03,20,153200,1,7660.0,7660.0,8032.0,7660.0,8032.0
2018-01-06,364,2867956,2,8098.0,7660.0,8032.0,8098.0,8032.0
2018-01-07,3555,27128205,2,7631.0,7631.0,8023.0,7631.0,8032.0
2018-01-09,6400,51016500,3,8000.0,7945.0,8021.0,8000.0,8023.0
2018-01-10,16500,132000000,6,8000.0,8000.0,8019.0,8000.0,8021.0
2018-01-13,111963,853046097,18,7619.0,7619.0,7739.0,7619.0,8019.0
2018-01-14,92874,683062871,20,7699.0,7353.0,7516.0,7366.0,7739.0
2018-01-16,150,1104835,2,7366.0,7301.0,7516.0,7301.0,7516.0
2018-01-17,1000,7516000,1,7516.0,7516.0,7516.0,7516.0,7516.0
2018-01-22,1000,7400000,2,7400.0,7400.0,7515.0,7400.0,7516.0
2018-01-23,4177,31171327,3,7500.0,7450.0,7514.0,7500.0,7515.0
2018-01-24,1200,8569200,1,7141.0,7141.0,7511.0,7141.0,7514.0
2018-01-27,9064,65016432,5,7488.0,7141.0,7492.0,7147.0,7511.0
2018-01-28,16534,118244636,16,7485.0,7130.0,7457.0,7485.0,7492.0
2018-01-29,8279,61715993,11,7485.0,7085.0,7457.0,7485.0,7457.0
2018-01-31,1001,7118112,2,7112.0,7111.0,7455.0,7112.0,7457.0
2018-02-04,42,307020,1,7310.0,7310.0,7455.0,7310.0,7455.0
2018-02-05,13630,101395560,3,7455.0,7112.0,7454.0,7112.0,7455.0
2018-02-10,3764,27575050,10,7350.0,7299.0,7451.0,7350.0,7454.0
2018-02-12,11864,91902400,9,7800.0,7700.0,7473.0,7700.0,7451.0
2018-02-13,11057,86351480,11,7820.0,7800.0,7496.0,7820.0,7473.0
2018-02-14,9567,75284090,4,7870.0,7868.0,7518.0,7870.0,7496.0
2018-02-17,13501,106555596,11,7893.0,7870.0,7550.0,7893.0,7518.0
2018-02-18,200,1585400,1,7927.0,7927.0,7550.0,7927.0,7550.0
2018-02-19,2000,15854000,3,7927.0,7927.0,7555.0,7927.0,7550.0
2018-02-21,1103,8748996,2,7932.0,7932.0,7558.0,7932.0,7555.0
2018-02-24,4147,32906445,6,7935.0,7935.0,7568.0,7935.0,7558.0
2018-02-25,13537,107499376,9,7946.0,7932.0,7600.0,7932.0,7568.0
2018-02-26,2067,16469520,4,7980.0,7950.0,7605.0,7980.0,7600.0
2018-02-27,5921,47204185,8,7985.0,7910.0,7619.0,7985.0,7605.0
2018-02-28,8905,71231095,5,7999.0,7999.0,7640.0,7999.0,7619.0
2018-03-03,4356,34942232,6,8022.0,8020.0,7650.0,8022.0,7640.0
2018-03-04,6800,54571400,8,8032.0,7999.0,7666.0,8032.0,7650.0
2018-03-05,9860,79363140,12,8049.0,8049.0,7690.0,8049.0,7666.0
2018-03-06,5300,42760400,5,8068.0,8068.0,7703.0,8068.0,7690.0
2018-03-07,2103,17009064,6,8088.0,8088.0,7708.0,8088.0,7703.0
2018-03-10,36036,291639348,16,8093.0,8093.0,7795.0,8093.0,7708.0
2018-03-11,5591,45756744,4,8184.0,8184.0,7809.0,8184.0,7795.0
2018-03-12,35825,293693231,21,8199.0,8197.0,7896.0,8199.0,7809.0
2018-03-13,4944,40979640,8,8290.0,8288.0,7908.0,8288.0,7896.0
2018-03-14,18450,151823863,12,8303.0,8200.0,7945.0,8200.0,7908.0
2018-03-17,5260,43793724,9,8342.0,8300.0,7958.0,8341.0,7945.0
2018-03-18,2200,18332600,5,8333.0,8333.0,7963.0,8333.0,7958.0
2018-03-19,2102,17518453,5,8348.0,8331.0,7968.0,8348.0,7963.0
2018-03-25,445,3537750,1,7950.0,7950.0,7968.0,7950.0,7968.0
2018-03-26,445,3532040,2,7940.0,7912.0,7968.0,7912.0,7968.0
2018-03-27,4110,31549170,6,8000.0,7570.0,7961.0,8000.0,7968.0
2018-04-04,641,4849165,1,7565.0,7565.0,7959.0,7565.0,7961.0
2018-04-07,659,4984276,3,7564.0,7562.0,7957.0,7564.0,7959.0
2018-04-08,8834,66804542,7,7563.0,7562.0,7935.0,7563.0,7957.0
2018-04-10,6604,49787556,4,7539.0,7539.0,7919.0,7539.0,7935.0
2018-04-11,3715,27951660,5,7524.0,7524.0,7910.0,7524.0,7919.0
2018-04-15,3612,27180300,2,7525.0,7525.0,7901.0,7525.0,7910.0
2018-04-18,10,75250,1,7525.0,7525.0,7901.0,7525.0,7901.0
2018-04-22,3000,23765762,4,7999.0,7800.0,7901.0,7999.0,7901.0
2018-04-23,1,7999,1,7999.0,7999.0,7901.0,7999.0,7901.0
2018-04-24,720,5404320,2,7506.0,7506.0,7899.0,7506.0,7901.0
2018-04-25,5000,37525000,1,7505.0,7505.0,7887.0,7505.0,7899.0
2018-04-28,142,1093400,1,7700.0,7700.0,7887.0,7700.0,7887.0
2018-04-30,8506,63769464,5,7500.0,7493.0,7866.0,7500.0,7887.0
2018-05-01,7674,57432502,5,7550.0,7473.0,7848.0,7550.0,7866.0
2018-05-05,1300,10008700,1,7699.0,7699.0,7847.0,7699.0,7848.0
2018-05-06,2010,15579570,3,7847.0,7699.0,7846.0,7846.0,7847.0
2018-05-09,17996,138064036,8,7846.0,7454.0,7826.0,7846.0,7846.0
2018-05-12,536,3985160,1,7435.0,7435.0,7825.0,7435.0,7826.0
2018-05-13,10536,78455504,3,7661.0,7435.0,7800.0,7435.0,7825.0
2018-05-14,2550,19890000,1,7800.0,7800.0,7800.0,7800.0,7800.0
2018-05-15,15000,111150000,2,7410.0,7410.0,7763.0,7410.0,7800.0
2018-05-16,24604,182537076,4,7419.0,7419.0,7710.0,7419.0,7763.0
2018-05-19,18300,134134500,7,7499.0,7325.0,7667.0,7325.0,7710.0
2018-05-20,7918,58585282,4,7399.0,7399.0,7654.0,7399.0,7667.0
2018-05-21,10598,77734494,8,7398.0,7300.0,7633.0,7353.0,7654.0
2018-05-23,1000,7252000,1,7252.0,7252.0,7631.0,7252.0,7633.0
2018-05-28,108,793800,1,7350.0,7350.0,7631.0,7350.0,7631.0
2018-05-29,8000,58000000,2,7250.0,7250.0,7612.0,7250.0,7631.0
2018-05-30,59806,432517500,11,7359.0,7232.0,7470.0,7232.0,7612.0
2018-06-02,500,3616000,2,7232.0,7232.0,7469.0,7232.0,7470.0
2018-06-03,810,5813900,5,7191.0,7150.0,7468.0,7170.0,7469.0
2018-06-09,300,2132920,2,7110.0,7102.0,7467.0,7102.0,7468.0
2018-06-10,35854,254636908,9,7460.0,7100.0,7385.0,7100.0,7467.0
2018-06-11,2010,14305900,3,7443.0,7100.0,7382.0,7103.0,7385.0
2018-06-12,1000,7086000,1,7086.0,7086.0,7380.0,7086.0,7382.0
2018-06-13,2928,21621182,11,7700.0,7087.0,7380.0,7700.0,7380.0
2018-06-17,45355,321180621,21,7201.0,7020.0,7295.0,7020.0,7380.0
2018-06-23,2950,19422000,3,6600.0,6280.0,6584.0,6600.0,6295.0
2018-06-24,2861,19759373,5,6913.0,6900.0,6590.0,6900.0,6584.0
2018-06-25,18582,128267961,18,6919.0,6597.0,6626.0,6900.0,6590.0
2018-06-26,9059,62984584,9,6957.0,6910.0,6644.0,6910.0,6626.0
2018-06-27,37028,258217510,10,6976.0,6730.0,6720.0,6949.0,6644.0
2018-06-30,4116,29033394,7,7055.0,7052.0,6729.0,7052.0,6720.0
2018-07-01,180,1260000,1,7000.0,7000.0,6729.0,7000.0,6729.0
2018-07-03,4850,32702850,2,6750.0,6741.0,6729.0,6741.0,6729.0
2018-07-04,12813,87854154,3,7058.0,6800.0,6739.0,7058.0,6729.0
2018-07-07,20210,137509830,4,6806.0,6800.0,6747.0,6803.0,6739.0
2018-07-08,2500,16844000,3,6747.0,6700.0,6747.0,6700.0,6747.0
2018-07-10,50250,324216643,16,6740.0,6410.0,6654.0,6410.0,6747.0
2018-07-11,388,2612848,3,6746.0,6700.0,6654.0,6700.0,6654.0
2018-07-14,341302,2287464740,31,6950.0,6700.0,6702.0,6700.0,6654.0
2018-07-15,6077,40746285,1,6705.0,6705.0,6702.0,6705.0,6702.0
2018-07-16,110323,740276715,10,6870.0,6705.0,6708.0,6870.0,6702.0
2018-07-17,4345,29821118,4,6900.0,6711.0,6712.0,6900.0,6708.0
2018-07-18,201570,1350542303,16,6702.0,6700.0,6700.0,6700.0,6712.0
2018-07-21,239630,1618603862,25,6900.0,6700.0,6755.0,6900.0,6700.0
2018-07-22,282124,1989579402,27,7092.0,6899.0,7052.0,7092.0,6755.0
2018-07-23,4000,29616000,8,7404.0,7404.0,7061.0,7404.0,7052.0
2018-07-24,13000,96238100,6,7404.0,7400.0,7089.0,7403.0,7061.0
2018-07-25,158207,1176722551,19,7443.0,7402.0,7434.0,7443.0,7089.0
2018-07-28,54052,421844360,17,7805.0,7750.0,7559.0,7805.0,7434.0
2018-07-29,75877,602154872,28,7936.0,7935.0,7738.0,7936.0,7559.0
2018-07-30,16752,134497184,13,8124.0,7352.0,7768.0,8124.0,7738.0
2018-07-31,107246,874575390,28,8156.0,8149.0,8027.0,8149.0,7768.0
2018-08-01,15505,128595790,22,8419.0,8150.0,8053.0,8150.0,8027.0
2018-08-04,2350,18041700,6,8000.0,7651.0,8047.0,7651.0,8053.0
2018-08-05,8740,69941050,12,8448.0,7668.0,8045.0,8100.0,8047.0
2018-08-06,14916,114862116,5,7701.0,7700.0,8013.0,7700.0,8045.0
2018-08-07,27237,207821011,9,7632.0,7613.0,7948.0,7613.0,8013.0
2018-08-11,20182,152394282,5,7551.0,7551.0,7898.0,7551.0,7948.0
2018-08-12,52561,394417744,13,7504.0,7504.0,7769.0,7504.0,7898.0
2018-08-13,68279,509023378,37,7490.0,7381.0,7635.0,7381.0,7769.0
2018-08-14,11525,85988475,9,7495.0,7310.0,7622.0,7310.0,7635.0
2018-08-15,152649,1148493840,15,7900.0,7495.0,7528.0,7900.0,7622.0
2018-08-18,900,6824000,2,7800.0,7310.0,7528.0,7800.0,7528.0
2018-08-19,7220,52021400,4,7310.0,7200.0,7513.0,7200.0,7528.0
2018-08-20,9500,68409500,7,7201.0,7201.0,7494.0,7201.0,7513.0
2018-08-25,90132,664215035,15,7600.0,7120.0,7424.0,7400.0,7494.0
2018-08-26,16648,119712340,10,7394.0,7124.0,7400.0,7200.0,7424.0
2018-08-27,1379,10120927,4,7391.0,7200.0,7399.0,7380.0,7400.0
2018-08-28,4563,32647678,7,7300.0,7051.0,7392.0,7300.0,7399.0
2018-08-29,5511,40553170,4,7379.0,7200.0,7391.0,7379.0,7392.0
2018-09-01,308153,2369158948,106,7760.0,7398.0,7688.0,7760.0,7391.0
2018-09-02,37934,303489818,41,8072.0,7700.0,7762.0,7960.0,7688.0
2018-09-03,15026,117218840,13,8147.0,7375.0,7766.0,7979.0,7762.0
2018-09-04,26519,204437116,22,8148.0,7381.0,7757.0,7799.0,7766.0
2018-09-05,67737,509265500,30,7998.0,7433.0,7656.0,7500.0,7757.0
2018-09-08,49904,373119156,34,7778.0,7281.0,7600.0,7700.0,7656.0
2018-09-09,95822,720929915,32,7800.0,7442.0,7554.0,7700.0,7600.0
2018-09-10,62820,487103941,42,7931.0,7700.0,7633.0,7931.0,7554.0
2018-09-11,10068,80185872,13,8014.0,7761.0,7654.0,7970.0,7633.0
2018-09-12,31439,252375146,19,8036.0,7750.0,7727.0,8035.0,7654.0
2018-09-15,127737,1036330281,26,8113.0,8113.0,8035.0,8113.0,7727.0
2018-09-16,79591,670339322,38,8436.0,8150.0,8228.0,8436.0,8035.0
2018-09-17,159868,1380752726,61,8639.0,8500.0,8636.0,8639.0,8228.0
2018-09-18,171046,1550770540,39,9067.0,8660.0,9066.0,9067.0,8636.0
2018-09-22,113740,1082506530,30,9519.0,9410.0,9387.0,9519.0,9066.0
2018-09-23,214539,2160089324,35,10348.0,9856.0,10069.0,10348.0,9387.0
2018-09-24,135002,1427241144,18,10572.0,10572.0,10493.0,10572.0,10069.0
2018-09-25,43162,475515754,7,11017.0,11017.0,10634.0,11017.0,10493.0
2018-09-26,358833,4006370445,27,11165.0,11165.0,11165.0,11165.0,10634.0
2018-09-29,13370,156736510,9,11723.0,11723.0,11212.0,11723.0,11165.0
2018-09-30,17299,203643828,17,11772.0,11772.0,11273.0,11772.0,11212.0
2018-10-01,36900,436748400,7,11836.0,11836.0,11403.0,11836.0,11273.0
2018-10-06,53828,621462626,23,11972.0,11374.0,11451.0,11374.0,11403.0
2018-10-07,11611,126316069,8,10879.0,10879.0,11409.0,10879.0,11451.0
2018-10-08,27363,296587557,9,10839.0,10839.0,11312.0,10839.0,11409.0
2018-10-09,32769,352168443,10,10747.0,10747.0,11196.0,10747.0,11312.0
2018-10-10,200,2127400,2,10637.0,10637.0,11195.0,10637.0,11196.0
2018-10-13,5410,57540760,4,10636.0,10636.0,11176.0,10636.0,11195.0
2018-10-14,1510,16033180,2,10618.0,10618.0,11171.0,10618.0,11176.0
2018-10-15,27883,295922279,12,10613.0,10613.0,11074.0,10613.0,11171.0
2018-10-16,26088,274471848,13,10521.0,10521.0,10984.0,10521.0,11074.0
2018-10-17,694,7241890,5,10435.0,10435.0,10982.0,10435.0,10984.0
2018-10-20,258789,2703284878,62,11520.0,10433.0,10446.0,10614.0,10982.0
2018-10-21,40510,414010996,33,10968.0,9924.0,10389.0,10777.0,10446.0
2018-10-22,22323,223937634,31,10760.0,9924.0,10339.0,10199.0,10389.0
2018-10-23,100839,995290293,42,10680.0,9823.0,10043.0,9823.0,10339.0
2018-10-24,155217,1484061883,61,9749.0,9541.0,9576.0,9610.0,10043.0
2018-11-04,82575,522166465,49,6405.0,6100.0,6324.0,6405.0,5901.0
2018-11-05,16462,109307680,7,6640.0,6640.0,6343.0,6640.0,6324.0
2018-11-06,19747,131515020,10,6660.0,6660.0,6365.0,6660.0,6343.0
2018-11-10,11001,73519683,3,6683.0,6683.0,6377.0,6683.0,6365.0
2018-11-11,65474,438348430,7,6695.0,6695.0,6451.0,6695.0,6377.0
2018-11-12,33322,225689906,3,6773.0,6773.0,6489.0,6773.0,6451.0
2018-11-13,168788,1149952644,15,6813.0,6813.0,6684.0,6813.0,6489.0
2018-11-14,50286,352907148,5,7018.0,7018.0,6744.0,7018.0,6684.0
2018-11-17,41230,291949630,8,7081.0,7081.0,6794.0,7081.0,6744.0
2018-11-18,157811,1125665863,35,7133.0,7133.0,6985.0,7133.0,6794.0
2018-11-19,21020,154160680,3,7334.0,7334.0,7011.0,7334.0,6985.0
2018-11-20,267327,2141174359,112,8179.0,7501.0,8010.0,8179.0,7011.0
2018-11-21,149806,1259868460,36,8410.0,8410.0,8224.0,8410.0,8010.0
2018-11-24,120758,973294446,109,8635.0,7813.0,8153.0,7813.0,8224.0
2018-11-26,74622,578137223,63,7760.0,7746.0,8045.0,7746.0,8153.0
2018-11-27,7865,60112195,17,7643.0,7643.0,8034.0,7643.0,8045.0
2018-11-28,5813,44370629,8,7633.0,7633.0,8026.0,7633.0,8034.0
2018-12-01,200,1525000,1,7625.0,7625.0,8026.0,7625.0,8026.0
2018-12-02,19734,150471750,16,7625.0,7625.0,7998.0,7625.0,8026.0
2018-12-03,6613,50252187,10,7599.0,7599.0,7989.0,7599.0,7998.0
2018-12-04,29637,224944830,14,7590.0,7590.0,7947.0,7590.0,7989.0
2018-12-05,11355,85730250,9,7550.0,7550.0,7931.0,7550.0,7947.0
2018-12-08,7692,57959220,6,7535.0,7535.0,7920.0,7535.0,7931.0
2018-12-09,810,6094440,3,7524.0,7524.0,7919.0,7524.0,7920.0
2018-12-10,241099,1816608051,91,7888.0,7524.0,7588.0,7530.0,7919.0
2018-12-11,75239,562669203,65,7780.0,7220.0,7559.0,7302.0,7588.0
2018-12-12,105737,769206771,57,7789.0,7200.0,7452.0,7399.0,7559.0
2018-12-15,51522,365372106,40,7200.0,7080.0,7386.0,7200.0,7452.0
2018-12-16,57906,406948509,36,7214.0,7017.0,7312.0,7017.0,7386.0
2018-12-17,16345,113550764,20,6950.0,6947.0,7291.0,6947.0,7312.0
2018-12-18,6575,45545025,8,6927.0,6927.0,7282.0,6927.0,7291.0
2018-12-19,180495,1265482185,37,7225.0,6918.0,7107.0,7224.0,7282.0
2018-12-22,68370,499974795,62,7462.0,7150.0,7157.0,7290.0,7107.0
2018-12-23,12833,90751850,9,7300.0,6868.0,7153.0,7000.0,7157.0
2018-12-24,6943,48549186,11,7000.0,6960.0,7149.0,7000.0,7153.0
2018-12-25,33608,235732534,18,7505.0,6863.0,7133.0,7000.0,7149.0
2018-12-26,18,125280,1,6960.0,6960.0,7133.0,6960.0,7133.0
2018-12-30,27930,198374187,25,7480.0,6961.0,7103.0,6961.0,7133.0
2018-12-31,29435,206402925,27,7199.0,6900.0,7093.0,6912.0,7103.0
2019-01-01,19209,136455770,13,7199.0,6895.0,7094.0,7030.0,7093.0
2019-01-02,58110,411374587,23,7250.0,6740.0,7091.0,7209.0,7094.0
2019-01-05,19856,143612659,20,7300.0,7095.0,7101.0,7130.0,7091.0
2019-01-06,20269,143817268,10,7120.0,7094.0,7101.0,7094.0,7101.0
2019-01-07,47424,335462884,21,7130.0,7046.0,7096.0,7130.0,7101.0
2019-01-08,17576,124649485,31,7200.0,7045.0,7096.0,7200.0,7096.0
2019-01-09,5182,37289730,6,7200.0,7110.0,7098.0,7110.0,7096.0
2019-01-12,15699,110937900,9,7100.0,7050.0,7096.0,7050.0,7098.0
2019-01-13,29774,208858182,14,7049.0,7000.0,7087.0,7000.0,7096.0
2019-01-14,23204,161429300,18,7199.0,6750.0,7076.0,7199.0,7087.0
2019-01-15,21600,150872500,9,7000.0,6800.0,7069.0,7000.0,7076.0
2019-01-16,119728,805501896,84,6874.0,6716.0,6923.0,6833.0,7069.0
2019-01-19,13956,94364617,19,6866.0,6600.0,6915.0,6850.0,6923.0
2019-01-20,18004,119957782,28,6850.0,6571.0,6899.0,6700.0,6915.0
2019-01-21,450,3081150,3,6848.0,6845.0,6899.0,6845.0,6899.0
2019-01-22,1451,9935234,6,6850.0,6837.0,6899.0,6850.0,6899.0
2019-01-23,8674,59383904,16,7000.0,6680.0,6897.0,6692.0,6899.0
2019-01-26,4286,29378025,5,6887.0,6850.0,6896.0,6860.0,6897.0
2019-01-27,3089,21304059,10,7000.0,6861.0,6896.0,6863.0,6896.0
2019-01-28,30195,210916337,22,7150.0,6600.0,6906.0,7000.0,6896.0
2019-01-29,20655,138551327,11,6900.0,6700.0,6891.0,6700.0,6906.0
2019-01-30,28220,201808698,29,7230.0,7063.0,6917.0,7200.0,6891.0
2019-02-02,8300,59468060,15,7190.0,7100.0,6924.0,7189.0,6917.0
2019-02-03,1408,9949800,5,7080.0,6923.0,6925.0,7080.0,6924.0
2019-02-04,8034,56457512,11,7080.0,6927.0,6928.0,6927.0,6925.0
2019-02-05,11996,81723720,9,7060.0,6803.0,6923.0,7030.0,6928.0
2019-02-06,60965,435969120,21,7250.0,7030.0,6973.0,7190.0,6923.0
2019-02-13,1000,7000000,1,7000.0,7000.0,6973.0,7000.0,6973.0
2019-02-16,500,3450000,1,6900.0,6900.0,6973.0,6900.0,6973.0
2019-02-17,12957,89040490,12,7070.0,6810.0,6968.0,7070.0,6973.0
2019-02-18,6148,43574630,14,7178.0,6810.0,6971.0,7178.0,6968.0
2019-02-19,15950,116029742,26,7316.0,7100.0,6988.0,7100.0,6971.0
2019-02-20,14966,104247832,15,7100.0,6851.0,6987.0,7100.0,6988.0
2019-02-23,969694,6790472926,52,7336.0,6901.0,7003.0,7336.0,6987.0
2019-02-24,63448,463964612,40,7353.0,7203.0,7073.0,7353.0,7003.0
2019-02-25,21377,154699816,12,7426.0,7125.0,7086.0,7300.0,7073.0
2019-02-26,16501,114942930,18,7070.0,6770.0,7079.0,6800.0,7086.0
2019-02-27,116006,800563927,45,7425.0,6726.0,7005.0,7187.0,7079.0
2019-03-02,50308,342773440,10,7290.0,6701.0,6971.0,7000.0,7005.0
2019-03-03,30266,206476480,7,7180.0,6818.0,6955.0,6818.0,6971.0
2019-03-04,24394,169801704,5,6962.0,6868.0,6956.0,6962.0,6955.0
2019-03-05,5758,39560076,6,7000.0,6823.0,6954.0,6871.0,6956.0
2019-03-06,38707,273152397,26,7188.0,6905.0,6968.0,6907.0,6954.0
2019-03-09,113831,797595777,30,7245.0,6951.0,6984.0,6952.0,6968.0
2019-03-10,86659,620712986,18,7299.0,7000.0,7039.0,7000.0,6984.0
2019-03-11,12747,89364516,8,7098.0,6975.0,7038.0,7097.0,7039.0
2019-03-12,48200,337400000,7,7000.0,7000.0,7031.0,7000.0,7038.0
2019-03-13,16266,112595388,7,7179.0,6856.0,7025.0,7000.0,7031.0
2019-03-16,27390,192473500,15,7150.0,6950.0,7025.0,6950.0,7025.0
2019-03-17,2024,14381230,7,7290.0,6851.0,7026.0,7000.0,7025.0
2019-03-18,14200,102320000,4,7225.0,7200.0,7035.0,7200.0,7026.0
2019-03-19,54155,393492644,21,7292.0,7000.0,7080.0,7279.0,7035.0
2019-03-25,1150,8395000,2,7300.0,7300.0,7081.0,7300.0,7080.0
2019-03-26,5610,40949941,11,7300.0,7295.0,7085.0,7300.0,7081.0
2019-03-27,114011,846515756,33,7439.0,7220.0,7223.0,7439.0,7085.0
2019-03-30,37036,280881024,9,7584.0,7584.0,7271.0,7584.0,7223.0
2019-03-31,697431,5111514715,69,7634.0,7303.0,7329.0,7633.0,7271.0
2019-04-06,90745,698282775,37,7695.0,7695.0,7448.0,7695.0,7329.0
2019-04-07,14784,113977516,15,7818.0,7320.0,7462.0,7818.0,7448.0
2019-04-08,15517,119345462,17,7830.0,7501.0,7475.0,7750.0,7462.0
2019-04-09,24986,186381330,21,7776.0,7320.0,7474.0,7320.0,7475.0
2019-04-10,101590,778958902,56,7847.0,7470.0,7544.0,7847.0,7474.0
2019-04-13,23934,189581214,15,7921.0,7921.0,7576.0,7921.0,7544.0
2019-04-14,14773,117504442,10,7954.0,7954.0,7596.0,7954.0,7576.0
2019-04-15,25409,202636775,4,7975.0,7975.0,7630.0,7975.0,7596.0
2019-04-16,3939,31555329,9,8011.0,8011.0,7635.0,8011.0,7630.0
2019-04-17,3745,30019920,5,8016.0,8016.0,7640.0,8016.0,7635.0
2019-04-20,2291,18378402,8,8022.0,8022.0,7643.0,8022.0,7640.0
2019-04-22,7825,62795625,6,8025.0,8025.0,7654.0,8025.0,7643.0
2019-04-23,27900,224204400,4,8036.0,8036.0,7692.0,8036.0,7654.0
2019-04-24,13123,105981348,7,8076.0,8076.0,7710.0,8076.0,7692.0
2019-04-27,1322,10701590,2,8095.0,8095.0,7712.0,8095.0,7710.0
2019-04-28,476426,5174516630,301,11061.0,10499.0,10861.0,11061.0,7712.0
2019-04-29,139771,1546604401,118,11350.0,10500.0,10963.0,10999.0,10861.0
2019-04-30,69563,729310060,76,11000.0,10415.0,10844.0,10415.0,10963.0
2019-05-01,144181,1489461387,130,10750.0,10302.0,10580.0,10390.0,10844.0
2019-05-04,297972,3106243124,97,10999.0,10056.0,10425.0,10899.0,10580.0
2019-05-05,151453,1629320414,123,10946.0,10500.0,10605.0,10501.0,10425.0
2019-05-06,184660,1927664408,51,10849.0,10075.0,10496.0,10600.0,10605.0
2019-05-07,94506,965819664,45,10790.0,9985.0,10403.0,10300.0,10496.0
2019-05-08,15030,155295750,19,10540.0,10144.0,10399.0,10535.0,10403.0
2019-05-11,17208,179298863,24,10600.0,10144.0,10400.0,10300.0,10399.0
2019-05-12,37199,371888531,18,10114.0,9910.0,10346.0,9999.0,10400.0
2019-05-13,89191,896725410,51,10400.0,9980.0,10253.0,10000.0,10346.0
2019-05-14,80889,812950577,54,10200.0,9980.0,10194.0,10000.0,10253.0
2019-05-15,100887,1015288040,48,10250.0,9690.0,10147.0,9900.0,10194.0
2019-05-18,46237,457859086,44,10200.0,9700.0,10107.0,10000.0,10147.0
2019-05-19,61330,609044487,41,10000.0,9650.0,10068.0,9999.0,10107.0
2019-05-20,135507,1359148212,68,10295.0,9999.0,10050.0,10001.0,10068.0
2019-05-21,50897,514096740,37,10293.0,10000.0,10059.0,10240.0,10050.0
2019-05-22,111862,1131618671,51,10360.0,10061.0,10082.0,10100.0,10059.0
2019-05-25,86389,886323490,65,10332.0,10000.0,10137.0,10132.0,10082.0
2019-05-26,115511,1192188014,131,10539.0,10138.0,10213.0,10498.0,10137.0
2019-05-28,200043,2135243307,44,10723.0,10214.0,10542.0,10723.0,10213.0
2019-05-29,1752537,19398832053,241,11069.0,11069.0,11069.0,11069.0,10542.0
2019-06-01,1120467,12798457993,250,11622.0,10517.0,11422.0,11400.0,11069.0
2019-06-02,779477,8849027549,227,11799.0,10853.0,11353.0,11181.0,11422.0
2019-06-03,445478,4918805058,213,11429.0,10786.0,11042.0,11073.0,11353.0
2019-06-08,1283507,14862671926,316,11594.0,11242.0,11580.0,11594.0,11042.0
2019-06-09,878200,10644280552,262,12159.0,11602.0,12121.0,12159.0,11580.0
2019-06-10,549386,6988968904,214,12727.0,12350.0,12721.0,12727.0,12121.0
2019-06-16,442079,5024827366,153,12538.0,11344.0,11366.0,11344.0,11941.0
2019-06-17,200559,2169784971,197,11920.0,10798.0,10974.0,10798.0,11366.0
2019-06-18,134960,1408207868,133,10800.0,10426.0,10714.0,10426.0,10974.0
2019-06-19,56328,573362712,54,10179.0,10179.0,10606.0,10179.0,10714.0
2019-06-22,152058,1532548698,95,10899.0,10076.0,10320.0,10081.0,10606.0
2019-06-23,66074,684339410,90,10835.0,10050.0,10329.0,10600.0,10320.0
2019-06-24,64145,689222007,93,10836.0,10610.0,10424.0,10730.0,10329.0
2019-06-25,47798,519269046,104,10945.0,10501.0,10499.0,10849.0,10424.0
2019-06-26,233094,2569295862,75,11023.0,10945.0,10935.0,11023.0,10499.0
2019-06-30,82488,903777669,91,11470.0,10501.0,10941.0,10520.0,10935.0
2019-07-01,24914,265463865,44,10858.0,10396.0,10916.0,10580.0,10941.0
2019-07-02,55916,615087678,83,11098.0,10372.0,10933.0,10900.0,10916.0
2019-07-03,72968,774226144,121,10910.0,10408.0,10849.0,10635.0,10933.0
2019-07-06,23446,252331287,39,11300.0,10401.0,10842.0,10510.0,10849.0
2019-07-07,209300,2193925501,197,10880.0,10300.0,10573.0,10811.0,10842.0
2019-07-08,950271,10516139772,184,11101.0,10675.0,11066.0,11101.0,10573.0
2019-07-09,1978498,22884592472,511,11618.0,11402.0,11567.0,11570.0,11066.0
2019-07-10,268035,2972241412,189,11890.0,10989.0,11109.0,10989.0,11567.0
2019-07-13,197723,2164698360,172,11330.0,10600.0,10995.0,11180.0,11109.0
2019-07-14,88546,989415939,103,11498.0,10612.0,11052.0,11000.0,10995.0
2019-07-15,219217,2424691345,71,11494.0,10700.0,11059.0,11300.0,11052.0
2019-07-16,62494,660838257,93,11294.0,10507.0,10951.0,10507.0,11059.0
2019-07-17,139595,1485015751,98,11140.0,10404.0,10795.0,10410.0,10951.0
2019-07-20,131243,1361660816,59,10919.0,10300.0,10598.0,10590.0,10795.0
2019-07-21,142387,1505278647,64,10779.0,10280.0,10585.0,10300.0,10598.0
2019-07-22,40865,424264567,68,10699.0,10302.0,10555.0,10460.0,10585.0
2019-07-23,33796,343853629,36,10457.0,10057.0,10509.0,10280.0,10555.0
2019-07-24,28467,293089933,38,10645.0,10028.0,10487.0,10429.0,10509.0
2019-07-27,40780,414055922,63,10490.0,9963.0,10438.0,10079.0,10487.0
2019-07-28,87263,875483690,66,10396.0,9969.0,10312.0,10000.0,10438.0
2019-07-29,85471,852954559,85,10387.0,9910.0,10210.0,9980.0,10312.0
2019-07-30,34646,346790142,32,10199.0,9970.0,10185.0,10040.0,10210.0
2019-07-31,35833,364416236,33,10298.0,9970.0,10183.0,10030.0,10185.0
2019-08-03,82146,841750420,59,10394.0,10032.0,10202.0,10200.0,10183.0
2019-08-04,217309,2313907838,135,10712.0,10298.0,10548.0,10712.0,10202.0
2019-08-05,930445,10296172055,249,11075.0,10756.0,11066.0,11075.0,10548.0
2019-08-06,697711,7918264836,435,11619.0,11081.0,11349.0,11590.0,11066.0
2019-08-07,989726,11502309423,694,11900.0,11456.0,11622.0,11837.0,11349.0
2019-08-10,762203,9241822545,436,12203.0,11960.0,12125.0,12202.0,11622.0
2019-08-11,810493,10212509628,500,12731.0,12203.0,12600.0,12731.0,12125.0
2019-08-13,1285582,17006928367,579,13230.0,13200.0,13229.0,13230.0,12600.0
2019-08-14,611372,8120854369,500,13790.0,12600.0,13283.0,12866.0,13229.0
2019-08-17,856363,10823211499,548,13283.0,12619.0,12639.0,12680.0,13283.0
2019-08-18,190017,2315537427,230,12680.0,12008.0,12332.0,12300.0,12639.0
2019-08-19,337707,4219211413,242,12800.0,12200.0,12494.0,12700.0,12332.0
2019-08-21,306020,3851334512,258,12947.0,11910.0,12585.0,12597.0,12494.0
2019-08-24,374011,4751778385,213,12948.0,12550.0,12705.0,12610.0,12585.0
2019-08-25,304664,3818567840,219,13000.0,12100.0,12534.0,12639.0,12705.0
2019-08-26,774032,9918859924,385,13000.0,12221.0,12815.0,12970.0,12534.0
2019-08-27,578412,7583566016,301,13454.0,12800.0,13111.0,12850.0,12815.0
2019-08-28,457739,6001974690,228,13699.0,12502.0,13112.0,13170.0,13111.0
2019-08-31,274579,3557762500,197,13640.0,12710.0,12960.0,12881.0,13112.0
2019-09-01,278063,3482196613,245,12960.0,12350.0,12526.0,12470.0,12960.0
2019-09-02,271174,3301438401,206,12861.0,12051.0,12186.0,12230.0,12526.0
2019-09-03,179804,2278416637,117,12788.0,12230.0,12498.0,12562.0,12186.0
2019-09-04,128345,1628295847,139,12820.0,12515.0,12585.0,12624.0,12498.0
2019-09-07,261265,3337770929,199,12999.0,12400.0,12763.0,12835.0,12585.0
2019-09-08,385886,4996538955,226,13214.0,12763.0,12948.0,13000.0,12763.0
2019-09-11,966561,13071066097,437,13595.0,12810.0,13523.0,13595.0,12948.0
2019-09-14,1423230,20208442770,367,14199.0,14199.0,14199.0,14199.0,13523.0
2019-09-15,861180,12650420818,322,14908.0,14201.0,14690.0,14908.0,14199.0
2019-09-16,2516124,38793025271,358,15424.0,15000.0,15418.0,15424.0,14690.0
2019-09-17,4439133,71152960985,1703,16188.0,15520.0,16029.0,15835.0,15418.0
2019-09-18,696624,10623264785,465,16000.0,15228.0,15250.0,15400.0,16029.0
2019-09-21,1188819,18093578497,820,15850.0,14900.0,15220.0,14980.0,15250.0
2019-09-22,1181399,18115506393,690,15600.0,14999.0,15334.0,15265.0,15220.0
2019-09-23,1266752,20029320636,679,16100.0,15405.0,15812.0,15690.0,15334.0
2019-09-24,1136317,17223205562,946,16000.0,15022.0,15157.0,15023.0,15812.0
2019-09-25,842354,12984592247,624,15551.0,14635.0,15415.0,15349.0,15157.0
2019-09-28,2780068,44550600878,1447,16185.0,15011.0,16025.0,16000.0,15415.0
2019-09-29,1888896,30337239940,1189,16790.0,15352.0,16061.0,16270.0,16025.0
2019-09-30,3547626,59602346442,823,16864.0,16000.0,16801.0,16864.0,16061.0
2019-10-01,4027916,70864935059,1298,17641.0,16805.0,17593.0,17330.0,16801.0
2019-10-02,2533821,45973785541,1401,18472.0,16814.0,18144.0,18471.0,17593.0
2019-10-05,5212273,98248017093,1828,19051.0,18000.0,18849.0,18210.0,18144.0
2019-10-06,366101,6561871734,228,18250.0,17907.0,17924.0,17907.0,18849.0
2019-10-07,228266,3886913448,102,17028.0,17028.0,17194.0,17028.0,17924.0
2019-10-08,37090,605865150,45,16335.0,16335.0,17080.0,16335.0,17194.0
2019-10-09,228091,3701004566,66,16226.0,16226.0,16384.0,16226.0,17080.0
2019-10-12,1699772,26519583762,945,16000.0,15565.0,15602.0,15565.0,16384.0
2019-10-13,799295,11949592557,472,15550.0,14822.0,14950.0,14822.0,15602.0
2019-10-14,129905,1845040715,95,14203.0,14203.0,14603.0,14203.0,14950.0
2019-10-15,165909,2301655557,63,13873.0,13873.0,14170.0,13873.0,14603.0
2019-10-16,69303,932956986,46,13462.0,13462.0,13995.0,13462.0,14170.0
2019-10-20,21996,292458816,22,13296.0,13296.0,13940.0,13296.0,13995.0
2019-10-21,1474303,19567750048,626,13849.0,13243.0,13273.0,13545.0,13940.0
2019-10-22,1231160,16257343226,783,13936.0,12610.0,13205.0,13143.0,13273.0
2019-10-23,464429,5854626439,301,13444.0,12545.0,12606.0,12545.0,13205.0
2019-10-26,272151,3265236657,138,12500.0,11976.0,12015.0,11976.0,12606.0
2019-10-28,870426,10219898325,587,12495.0,11415.0,11741.0,12240.0,12015.0
2019-10-30,196030,2416291840,116,12328.0,12250.0,12151.0,12328.0,11741.0
2019-11-02,607073,7722345226,370,12758.0,12450.0,12721.0,12758.0,12151.0
2019-11-03,561667,7471191528,314,13357.0,12751.0,13302.0,13357.0,12721.0
2019-11-04,1060713,14388105068,650,13963.0,13000.0,13565.0,13319.0,13302.0
2019-11-05,514719,6745093305,435,13800.0,12887.0,13104.0,13100.0,13565.0
2019-11-09,370111,4786150084,348,13576.0,12599.0,12932.0,12749.0,13104.0
2019-11-10,465112,5722504921,316,12929.0,12286.0,12303.0,12286.0,12932.0
2019-11-11,363785,4484021794,363,12899.0,11712.0,12326.0,12560.0,12303.0
2019-11-12,555194,6954906283,301,12860.0,12400.0,12527.0,12600.0,12326.0
2019-11-13,434977,5498463622,294,13137.0,12420.0,12641.0,12540.0,12527.0
2019-11-16,282479,3539933454,256,13251.0,12304.0,12532.0,12420.0,12641.0
2019-11-17,326462,3893028729,163,12530.0,11906.0,11925.0,11906.0,12532.0
2019-11-18,281884,3344102510,226,12200.0,11400.0,11863.0,11992.0,11925.0
2019-11-19,521743,6233905532,296,12340.0,11270.0,11948.0,11911.0,11863.0
2019-11-20,461412,5545784748,366,12300.0,11900.0,12019.0,12225.0,11948.0
2019-11-23,316547,3921277894,377,12600.0,12300.0,12388.0,12545.0,12019.0
2019-11-24,517984,6640159269,390,13007.0,12388.0,12819.0,12950.0,12388.0
2019-11-25,957344,12766429957,433,13459.0,12821.0,13335.0,13459.0,12819.0
2019-11-26,879225,12059600380,533,13969.0,13493.0,13716.0,13599.0,13335.0
2019-11-27,829811,11156194805,659,13998.0,13055.0,13444.0,13777.0,13716.0
2019-11-30,1074628,15096965228,630,14116.0,13501.0,14049.0,14116.0,13444.0
2019-12-01,790362,11625755737,566,14751.0,14302.0,14709.0,14751.0,14049.0
2019-12-02,1295630,19023425497,1044,15444.0,13974.0,14683.0,14322.0,14709.0
2019-12-03,887214,12600620013,580,14749.0,13971.0,14202.0,14099.0,14683.0
2019-12-04,574600,8193107483,436,14450.0,14100.0,14259.0,14250.0,14202.0
2019-12-07,549320,7845055128,465,14790.0,14120.0,14281.0,14225.0,14259.0
2019-12-08,749933,10538675006,577,14333.0,13700.0,14053.0,14140.0,14281.0
2019-12-09,757691,10991854973,639,14755.0,14053.0,14507.0,14755.0,14053.0
2019-12-10,596075,8785035261,470,15219.0,14005.0,14738.0,14460.0,14507.0
2019-12-11,380318,5565177968,400,14900.0,14139.0,14633.0,14620.0,14738.0
2019-12-14,841130,12188666146,525,15100.0,14150.0,14491.0,14631.0,14633.0
2019-12-15,1756541,26279786372,873,15215.0,14111.0,14961.0,15215.0,14491.0
2019-12-16,1929982,30310023260,513,15709.0,15217.0,15705.0,15709.0,14961.0
2019-12-17,2095283,34270095959,1372,16490.0,16100.0,16356.0,16220.0,15705.0
2019-12-18,1025147,16160161683,745,16250.0,15539.0,15764.0,15996.0,16356.0
2019-12-21,1005448,15844463806,542,16000.0,15541.0,15759.0,15692.0,15764.0
2019-12-22,640482,9960679659,537,15996.0,15400.0,15552.0,15600.0,15759.0
2019-12-23,988004,15270647644,706,15970.0,14780.0,15456.0,15152.0,15552.0
2019-12-24,528087,7999738805,422,15499.0,14905.0,15149.0,15040.0,15456.0
2019-12-25,677809,10055239652,519,15349.0,14740.0,14835.0,14852.0,15149.0
2019-12-28,2091207,32240237349,917,15576.0,14611.0,15417.0,15576.0,14835.0
2019-12-29,649577,9942816372,548,15887.0,15050.0,15307.0,15238.0,15417.0
2019-12-30,756507,11538844624,610,15550.0,15130.0,15253.0,15162.0,15307.0
2019-12-31,822563,12328225253,606,15790.0,14700.0,14988.0,14903.0,15253.0
2020-01-01,896368,13443476987,641,15332.0,14700.0,14998.0,14767.0,14988.0
2020-01-04,139845,1992651405,65,14249.0,14249.0,14624.0,14249.0,14998.0
2020-01-05,1875446,26215357148,856,15355.0,13893.0,13978.0,13893.0,14624.0
2020-01-07,326119,4361336390,239,14000.0,13280.0,13373.0,13280.0,13978.0
2020-01-08,130201,1706414306,50,13106.0,13106.0,13249.0,13106.0,13373.0
2020-01-11,19240,259990120,27,13513.0,13513.0,13267.0,13513.0,13249.0
2020-01-12,109526,1525697180,45,13930.0,13930.0,13526.0,13930.0,13267.0
2020-01-13,236266,3355449732,42,14202.0,14202.0,14096.0,14202.0,13526.0
2020-01-14,1695495,24835744972,574,14800.0,14087.0,14648.0,14500.0,14096.0
2020-01-15,592129,8706888771,396,14800.0,14002.0,14704.0,14680.0,14648.0
2020-01-18,1026733,15348657540,612,15248.0,14670.0,14949.0,14897.0,14704.0
2020-01-19,986809,14767811714,542,15190.0,14622.0,14965.0,15104.0,14949.0
2020-01-20,2522135,39235373766,843,15713.0,14851.0,15556.0,15713.0,14965.0
2020-01-21,2702007,44064443268,926,16333.0,16000.0,16308.0,16333.0,15556.0
2020-01-22,2120913,36141628382,1074,17123.0,16335.0,17041.0,16894.0,16308.0
2020-01-25,2543505,45331636649,1056,17893.0,17202.0,17823.0,17893.0,17041.0
2020-01-26,2948364,50419010168,1187,18590.0,16932.0,17101.0,16955.0,17823.0
2020-01-27,1346950,22357159858,1025,17180.0,16355.0,16598.0,16535.0,17101.0
2020-01-28,1337245,22152297924,942,16849.0,16272.0,16566.0,16550.0,16598.0
2020-02-01,1086390,17698043735,724,16899.0,15802.0,16291.0,16506.0,16566.0
2020-02-02,1463606,24498660739,795,17105.0,15750.0,16739.0,17104.0,16291.0
2020-02-03,1155450,19391533081,857,17100.0,16510.0,16783.0,16705.0,16739.0
2020-02-04,996826,16391112946,694,16750.0,16110.0,16443.0,16335.0,16783.0
2020-02-05,1171148,19184491336,742,17000.0,16056.0,16381.0,16380.0,16443.0
2020-02-08,1717184,28797658523,917,17000.0,16375.0,16770.0,16750.0,16381.0
2020-02-09,884174,14832404315,601,17000.0,16511.0,16775.0,16511.0,16770.0
2020-02-10,703479,11411520952,569,16741.0,15937.0,16222.0,16306.0,16775.0
2020-02-12,928687,15397974932,542,16890.0,16200.0,16580.0,16200.0,16222.0
2020-02-15,726971,12008522369,511,16833.0,16319.0,16519.0,16319.0,16580.0
2020-02-16,1542335,26309743151,812,17279.0,16540.0,17058.0,17270.0,16519.0
2020-02-17,960035,16384372185,656,17780.0,16620.0,17066.0,16620.0,17058.0
2020-02-18,1210378,20111011223,799,17194.0,16213.0,16615.0,16213.0,17066.0
2020-02-19,706484,12025616701,515,17200.0,16316.0,17022.0,16840.0,
2020-02-22,738542,13036470920,450,17873.0,16600.0,17652.0,17873.0,17022.0
2020-02-23,154705,2867302470,92,18534.0,18534.0,18139.0,18534.0,17652.0
2020-02-24,1847122,35178438490,527,19045.0,19045.0,19045.0,19045.0,18139.0
2020-02-25,2223975,44455811830,916,19997.0,19500.0,19989.0,19997.0,19045.0
2020-02-26,2679127,52660526430,1749,20555.0,19050.0,19656.0,19150.0,19989.0
2020-02-29,2045200,39075033691,1024,19949.0,18674.0,19106.0,19291.0,19656.0
2020-03-01,1015175,20297510097,703,20061.0,19302.0,19994.0,20061.0,19106.0
2020-03-02,2155391,44406582060,1373,20989.0,20104.0,20510.0,20830.0,19994.0
2020-03-03,1536718,32795532655,1201,21535.0,21000.0,21012.0,21535.0,20510.0
2020-03-04,1159491,24803408117,1156,22057.0,21000.0,21185.0,21390.0,21012.0
2020-03-07,1017636,20544427835,779,21190.0,20126.0,20755.0,20126.0,21185.0
2020-03-09,198098,3906096364,176,19718.0,19718.0,20668.0,19718.0,20755.0
2020-03-10,257790,5061706650,116,19635.0,19635.0,20555.0,19635.0,20668.0
2020-03-11,2117308,41554833653,1193,20500.0,19528.0,19722.0,19528.0,20555.0
2020-03-14,354733,6739310323,267,19980.0,18736.0,19621.0,18736.0,19722.0
2020-03-15,548255,10230218341,444,19499.0,18640.0,19413.0,18641.0,19621.0
2020-03-16,906610,17323600408,1012,20000.0,18443.0,19304.0,18720.0,19413.0
2020-03-17,565087,10431953894,570,19000.0,18339.0,19116.0,18523.0,19304.0
2020-03-18,791173,15108502755,774,19694.0,18476.0,19110.0,18980.0,19116.0
2020-03-24,1150076,22879039250,816,20065.0,19255.0,19454.0,20065.0,19110.0
2020-03-25,738640,15084078389,408,20426.0,20280.0,19727.0,20426.0,19454.0
2020-03-28,329703,6829138239,249,20713.0,20713.0,19855.0,20713.0,19727.0
2020-03-29,1430399,29722422910,1028,20847.0,20146.0,20377.0,20799.0,19855.0
2020-03-30,731546,14732484710,739,20980.0,19500.0,20308.0,20450.0,20377.0
2020-04-04,1821372,38524555411,967,21323.0,20302.0,20932.0,21290.0,20308.0
2020-04-05,948655,19660091383,815,21977.0,20101.0,20852.0,20550.0,20932.0
2020-04-06,1102294,21962917828,842,20550.0,19820.0,20437.0,20200.0,20852.0
2020-04-07,1260440,25799650070,876,21000.0,19850.0,20453.0,20350.0,
2020-04-08,1840527,37267969160,1283,20789.0,19810.0,20300.0,20242.0,20453.0
2020-04-11,1408507,28598774715,984,20950.0,19800.0,20302.0,20570.0,20300.0
2020-04-12,1715330,36485343432,644,21317.0,20570.0,20976.0,21317.0,20302.0
2020-04-13,1141406,24668375789,725,22024.0,20512.0,21271.0,22024.0,20976.0
2020-04-14,1641503,36548412205,1097,22334.0,21700.0,21934.0,22334.0,21271.0
2020-04-15,1424311,31805834364,919,23030.0,20838.0,22163.0,22272.0,21934.0
2020-04-18,822371,19102697826,557,23271.0,22901.0,22552.0,23271.0,22163.0
2020-04-19,1520097,35273761651,884,23679.0,22000.0,22992.0,22552.0,22552.0
2020-04-20,1480324,35384276026,726,24141.0,21998.0,23590.0,24141.0,22992.0
2020-04-21,1289431,31251623433,629,24768.0,23501.0,23960.0,24767.0,23590.0
2020-04-22,890738,22392856356,440,25158.0,24111.0,24426.0,25158.0,23960.0
2020-04-25,865478,21957631434,374,25647.0,24000.0,24825.0,25647.0,24426.0
2020-04-26,2634604,67765047128,903,26066.0,23899.0,25721.0,26000.0,24825.0
2020-04-27,830691,22286841639,285,27007.0,25500.0,26171.0,27007.0,25721.0
2020-04-28,1370729,37618474187,443,27479.0,27000.0,27024.0,27479.0,26171.0
2020-04-29,992750,28075986680,543,28375.0,27100.0,27634.0,28375.0,27024.0
2020-05-02,601313,17446468630,480,29015.0,28513.0,28093.0,29015.0,27634.0
2020-05-03,1192561,35176537088,492,29497.0,29480.0,29018.0,29497.0,28093.0
2020-05-04,1576239,45073855304,796,30000.0,27568.0,28650.0,29200.0,29018.0
2020-05-05,2023834,59006904144,870,30082.0,27600.0,29156.0,27680.0,28650.0
2020-05-06,1481140,44902351601,532,30613.0,28003.0,30106.0,30613.0,29156.0
2020-05-09,1374262,42821373530,683,31611.0,29601.0,30978.0,30869.0,30106.0
2020-05-10,1399011,42231786362,921,32200.0,29430.0,30312.0,30400.0,30978.0
2020-05-11,959914,27647299401,561,29855.0,28797.0,29439.0,28797.0,30312.0
2020-05-12,1129671,31595813167,345,28600.0,27968.0,28439.0,27968.0,29439.0
2020-05-13,938011,25776488305,623,28428.0,27018.0,27897.0,27020.0,28439.0
2020-05-16,795182,21097619187,400,27000.0,26503.0,27291.0,26505.0,27897.0
2020-05-17,856322,24148321332,449,28655.0,25928.0,27725.0,28655.0,27291.0
2020-05-18,1014230,29525249530,334,29111.0,29111.0,28509.0,29111.0,27725.0
2020-05-19,1477818,44233793863,552,29934.0,29394.0,29682.0,29934.0,28509.0
2020-05-20,1413290,43979229385,596,31166.0,30400.0,30815.0,31166.0,29682.0
2020-05-23,698245,21578291297,639,32355.0,29275.0,30853.0,29275.0,30815.0
2020-05-26,97852,2868139972,126,29311.0,29311.0,30760.0,29311.0,30853.0
2020-05-27,857944,25087951570,456,29598.0,29222.0,29957.0,29350.0,30760.0
2020-05-30,854895,24868229151,581,30850.0,28470.0,29513.0,28470.0,29957.0
2020-05-31,617265,17354899102,345,29800.0,28038.0,28996.0,28038.0,29513.0
2020-06-01,1130297,31976058034,493,29999.0,27547.0,28518.0,29179.0,28996.0
2020-06-02,775026,22737642517,377,29800.0,28000.0,28899.0,29490.0,28518.0
2020-06-06,1007247,29965419356,579,30343.0,28150.0,29394.0,29480.0,28899.0
2020-06-07,1355902,41708276947,500,30863.0,29481.0,30465.0,30863.0,29394.0
2020-06-08,613083,18872333787,417,31988.0,28942.0,30578.0,30400.0,30465.0
2020-06-09,434855,12936440180,326,30944.0,29061.0,30370.0,30300.0,30578.0
2020-06-10,1173114,37213928342,512,31888.0,30350.0,31287.0,31888.0,30370.0
2020-06-13,834305,27406919250,174,32850.0,32850.0,32100.0,32850.0,31287.0
2020-06-14,1321023,44518475100,161,33700.0,33700.0,33420.0,33700.0,32100.0
2020-06-15,68999,2421174910,16,35090.0,35090.0,33490.0,35090.0,33420.0
2020-06-16,100015,3675551250,48,36750.0,36750.0,35110.0,36750.0,35000.0
2020-06-20,0,0,0,0.0,0.0,35110.0,36750.0,35110.0
2020-06-21,2222879,85726261300,705,38640.0,36800.0,38570.0,38640.0,35110.0
2020-06-22,1821134,70144045950,1108,40370.0,37000.0,38520.0,38650.0,38570.0
2020-06-23,1466372,58201149220,791,40440.0,37700.0,39690.0,40440.0,38520.0
2020-06-24,313404,12772224550,241,41670.0,38720.0,39920.0,41670.0,39690.0
2020-06-27,1071532,44199372550,392,41910.0,40800.0,41060.0,41000.0,39920.0
2020-06-28,958076,37633583940,471,41900.0,39010.0,39700.0,39240.0,41060.0
2020-07-01,0,0,0,0.0,0.0,38600.0,38140.0,38600.0
2020-07-04,340419,13393167500,275,40530.0,36700.0,38800.0,40470.0,38600.0
2020-07-05,685982,27169125540,603,40720.0,38620.0,39230.0,39970.0,38800.0
2020-07-06,1875849,72852000330,1222,40120.0,37990.0,38840.0,38800.0,39280.0
2020-07-07,711904,26316160590,537,38800.0,36900.0,37810.0,36900.0,38840.0
2020-07-08,234644,8428657460,253,36000.0,35920.0,37470.0,35920.0,37810.0
2020-07-13,214841,7453060290,236,35000.0,34690.0,36220.0,34690.0,36510.0
2020-07-14,518002,17887989930,352,35500.0,34410.0,35560.0,34410.0,36220.0
2020-07-15,272652,9212911080,211,33790.0,33790.0,35200.0,33790.0,35560.0
2020-07-18,1763791,62080026250,1181,36890.0,33440.0,35200.0,36500.0,35200.0
2020-07-19,1014347,35796961510,1047,36900.0,34000.0,35260.0,34750.0,35200.0
2020-07-20,743225,25882863540,947,36500.0,33500.0,35030.0,33800.0,35260.0
2020-07-21,524321,17549940280,584,34000.0,33280.0,34450.0,33470.0,35030.0
2020-07-22,436129,14335521520,389,34170.0,32730.0,33960.0,32730.0,34450.0
2020-07-25,475052,15590628360,569,34600.0,32300.0,33590.0,32600.0,33960.0
2020-07-26,358539,11468289460,367,32600.0,31920.0,33200.0,31920.0,33590.0
2020-07-27,554751,17509064230,365,31920.0,31540.0,32580.0,31540.0,33200.0
2020-07-28,810313,25166314070,503,31990.0,30960.0,31740.0,30960.0,32580.0
2020-07-29,824619,25312673490,613,31880.0,30160.0,31160.0,31840.0,31740.0
2020-08-01,1085217,35497278770,839,32710.0,32700.0,32210.0,32710.0,31160.0
2020-08-02,926170,30341808520,895,33820.0,30600.0,32530.0,31900.0,32210.0
2020-08-03,521880,16985843160,442,33000.0,31900.0,32540.0,32000.0,32530.0
2020-08-04,564453,17909577170,638,32020.0,31030.0,32250.0,31510.0,32540.0
